time,"Trace Velocity, Target, Actual (mph)(1)",EngSpd,EngTrq,BSFC,FuelEconomy,FuelVolFlw,TP HC Mass (g/km),TP CO Mass (g/km),TP NOx Mass (g/km),TP CO2 Mass (g/km)
0,0.0,0.0,0.0,2900.0,0.0,1.7315436241610742e-09,0.0,0.0,0.0,0
1,0.0,-7.61846774767523e-14,0.0,2900.0,0.25973154362416123,2.597315436241611e-07,3.200000000000005e-05,0.0001640000000000003,0.0,0
2,0.0,-7.64473767175028e-14,0.0,2900.0,0.5194630872483211,2.597315436241611e-07,6.400000000000001e-05,0.00032800000000000055,0.0,0
3,0.0,-7.672186117997448e-14,0.0,2900.0,0.7791946308724834,2.597315436241611e-07,9.600000000000031e-05,0.0004919999999999999,0.0,0
4,0.0,-7.699706420094734e-14,0.0,2900.0,1.038926174496644,2.597315436241611e-07,0.00012800000000000054,0.000656,0.0,0
5,0.0,-7.727148161096468e-14,0.0,2900.0,1.2986577181207897,2.597315436241611e-07,0.0001600000000000002,0.0008199999999999992,0.0,0
6,0.0,-7.754529971751484e-14,0.0,2900.0,1.5583892617449293,2.597315436241611e-07,0.00019200000000000006,0.000983999999999998,0.0,0
7,0.0,-7.78178965026556e-14,0.0,2900.0,1.8181208053690703,2.597315436241611e-07,0.00022399999999999997,0.001148,0.0,0
8,0.0,-7.808927531173275e-14,0.0,2900.0,2.0778523489932117,2.597315436241611e-07,0.0002560000000000017,0.0013120000000000002,0.0,0
9,0.0,-7.835949563174789e-14,0.0,2900.0,2.3375838926173547,2.597315436241611e-07,0.00028800000000000624,0.0014760000000000007,0.0,0
10,0.0,-7.862841663921751e-14,0.0,2900.0,2.5973154362414976,2.597315436241611e-07,0.00032000000000001076,0.0016400000000000013,0.0,0
11,0.0,-7.889605798996284e-14,0.0,2900.0,2.8570469798656406,2.597315436241611e-07,0.0003520000000000153,0.0018040000000000018,0.0,0
12,0.1242742384474668,341.3647137204163,15.98131507533241,1024.4213823769683,3.2383388319425146,4.4542322454167357e-07,0.0003985384503397422,0.0020443268639682324,2.544228800983315e-05,0
13,1.0563310268034676,775.0574203578062,25.256435336178633,448.9885815629334,3.716694949904547,6.188395486169208e-07,0.0004574220738344223,0.0023455143770458,9.27260010430206e-05,0
14,3.355404438081603,813.7838424964563,43.10056552182998,381.52531685692,4.260519786778975,6.904888474825112e-07,0.0005245927740341959,0.002687841399544939,0.00020127083599830113,0
15,6.151574803149606,1060.1044631674292,58.26934779083756,308.23487260811396,4.899497942012177,7.701463642568885e-07,0.0006035509934377777,0.0030899613216533463,0.00037279043910069576,0
16,8.139962618309074,1543.5497145339489,33.738806884068026,384.7499664220894,5.629022299010016,7.306508521649279e-07,0.0006937523657041757,0.003549455436799424,0.0006110256830457292,0
17,10.501173148810942,1994.417145361325,51.39153220125447,312.3310809053964,6.648392141325362,1.2266090508554044e-06,0.000819662396464356,0.004191263408566658,0.001060163566293919,0
18,13.483754871550145,2576.9132837153593,60.52296498164638,294.8732239707968,8.159085352336406,1.8096493588031282e-06,0.0010061929093721795,0.005142240087621687,0.0018670962718978007,0
19,16.15565099817068,2441.012088983953,29.750266154507223,339.75058559274026,9.49549432446711,1.3186419499435782e-06,0.00117145539220605,0.00598361327580196,0.0025570939272400576,0
20,17.087707786526682,2708.6986933558696,25.722323867063395,499.5389159906791,10.809806815260043,1.0259683423881301e-06,0.0013339379075646683,0.006811132528863329,0.003221109950293832,0
21,17.460530501869084,2772.741654450138,11.821574406551951,1279.0138903757604,11.587811063939522,7.932354831315156e-07,0.0014303538336034565,0.007300821763479053,0.0035295287682987203,0
22,17.58480474031655,2805.2039530460456,9.61398847475462,1786.7218366475608,12.31983750321705,6.327313792118504e-07,0.0015210182339020553,0.007761619936696246,0.003812087805087035,0
23,17.895490336435216,2840.6166326957323,15.106058778293773,947.1262255190077,13.119203817307138,9.266626006441546e-07,0.001620018962284763,0.008264737210469861,0.004136075343270788,0
24,18.081901694106417,2880.2267059312385,10.198989276135146,1672.9010953455452,13.89467489215369,6.876834490973204e-07,0.0017160180068102552,0.008752840194650193,0.004447135016879769,0
25,19.138232720909883,2998.3644793503336,34.34431200440208,381.5321103430118,15.129312987980525,1.5356109178574572e-06,0.0018689991600613185,0.009529875160762041,0.005062347556106412,0
26,19.82174103237095,2688.2056260826494,11.002922048172882,1135.1927870890663,16.116276179102893,8.133811561436733e-07,0.001991239317191357,0.010151113189995297,0.00551829832687757,0
27,21.188757655293088,2866.9366246549866,45.986473536103496,329.330373656078,17.530765333268217,1.709059025504612e-06,0.0021663787804906544,0.011041536336501297,0.006257930619067371,0
28,22.74218563588642,3087.0263212890773,41.738850388864854,345.3350519277515,19.22234458963232,1.7266554793502757e-06,0.0023760717230810555,0.012106338459100498,0.007195644583834806,0
29,24.295613616479756,3305.1648150082096,43.29906507355592,343.91613152897645,20.117944538536317,1.91222249570413e-06,0.0026019868423026397,0.01325487707224191,0.008230403256321276,0
30,25.66263023940189,3506.540602996422,38.19216934943838,377.42320818916454,19.857133477087228,1.8875830346802196e-06,0.0028352743736553537,0.014443428782349024,0.009311671259726978,0
31,26.40827567008669,3076.267085574672,14.815657815912871,501.2982553117403,18.938536274488147,1.21169973094189e-06,0.0029737404526221766,0.015149047537195516,0.009863846451435006,0
32,26.905372623876556,3124.642396753676,27.322423725163173,459.60251145885377,18.33416720026328,1.3712561024775958e-06,0.0031447689633664895,0.016018717439302957,0.01057671888652501,0
33,27.278195339218954,3180.3870155956392,19.68337565532156,518.2327840276339,17.72171737955849,1.2286251836537417e-06,0.003302017743603406,0.016819479034293545,0.011210108571938273,0
34,27.588880935337624,3218.535696521244,19.66060241809147,513.8672658948148,17.167778910781905,1.2531973164226785e-06,0.0034561938569306686,0.017605155838257093,0.011825954460287752,0
35,27.65101805456136,3235.1254343380087,12.714576056154456,1414.6058897429205,16.560605589528766,8.803426464838406e-07,0.003584796869901689,0.018260953602015965,0.012313402365402043,0
36,27.46460669689016,3222.5116536292708,6.6410894599341885,2140.175914814424,15.846880476018868,5.752635535570943e-07,0.0036708378973721186,0.018700086880479538,0.012586155835687765,0
37,26.53254990853416,3125.983616131344,0.13514788608797967,2899.973831773915,15.046223946764911,2.597419027515705e-07,0.003710697865232668,0.018904094703726657,0.012625773594726969,0
38,24.79271057026962,2928.799344820598,0.0009112067714642071,2899.9999997974733,14.344213393973467,2.5973154369659184e-07,0.003742697972457687,0.019068095248491145,0.012625774129075801,0
39,22.99073411278135,2718.137272491048,6.136553317150325e-06,2900.0,13.76362684113065,2.597315436241611e-07,0.003774697972219403,0.019232095247240007,0.012625774127645237,0
40,21.49944325141175,2922.6105947120172,13.542091045491302,1063.069013679015,13.37404429580036,9.146025319645394e-07,0.0038325769269473226,0.01952754725899108,0.012755652741785972,0
41,20.070289509265884,2805.1207431587654,0.16529384741331424,2899.9856796315203,12.984561098210676,2.5973634139449864e-07,0.003871556303821271,0.019726921683516464,0.012789837592489374,0
42,18.019764574882682,2530.057772896792,0.0011137480552462747,2899.999999889145,12.63946953902893,2.597315436557513e-07,0.003903556349341466,0.01989092191318991,0.012789837806181465,0
43,15.596416925157081,2202.754423577875,7.500569124921437e-06,2900.0,12.364016156339655,2.597315436241611e-07,0.003935556349341786,0.02005492191319159,0.012789837806182973,0
44,13.794440467668812,2259.7071133692707,1.9343418551107256,2878.474628576752,12.17566849728727,2.648868877162783e-07,0.003975681054484597,0.02025994915191441,0.012826748271016906,0
45,12.986657917760278,2096.729509080649,0.013883183054556037,2899.999833589358,11.99938267111587,2.597315789710114e-07,0.004007734722796627,0.020424221727119808,0.012826984893098432,0
46,12.675972321641611,2035.6869610827703,1.1421585078071472,2727.7889503036104,11.849111465583432,2.945654973394385e-07,0.004041742808061823,0.020598513079256933,0.012835413797088394,0
47,12.116738248628012,1952.0089905540096,0.02630958694262759,2899.995222774047,11.7090544876381,2.597324456236609e-07,0.004074578075070729,0.020766798398462582,0.012838898505093413,0
48,11.433229937166942,1844.5243768652676,0.00017737226597116894,2899.999999963189,11.582885366073201,2.597315436304885e-07,0.004106578084391971,0.02093079844624211,0.012838898542788227,0
49,11.060407221824544,2322.379998439645,10.663250874890704,2814.6436714688,11.6323901104811,2.810650982186826e-07,0.004194667800454739,0.02138026633267051,0.013113344957964408,0
50,11.060407221824544,2232.7316632833613,5.831335798533242,2027.8538582669826,11.555155818570656,4.6469666030083194e-07,0.004237469264785344,0.021599148300481614,0.013160864679770578,0
51,10.811858744929609,2200.069080798081,0.40599415022597424,2899.509596126146,11.479831496575633,2.598441304269155e-07,0.004279278622360578,0.021812993849791237,0.013203999285154491,0
52,9.75552771812614,2011.8930872672809,0.002753679187239308,2899.9999962081465,11.389627916690849,2.5973154437618957e-07,0.004311279772015412,0.021976999699794435,0.013204004257002107,0
53,8.139962618309074,1974.9743655873692,1.8545101252629202e-05,2900.0,11.323149641784918,2.597315436241611e-07,0.004343279772023134,0.02214099969983414,0.01320400425703399,0
54,7.5185914260717395,1965.1243570821402,1.2489245966890335e-07,2900.0,11.278117295948121,2.597315436241611e-07,0.004375279772023085,0.022304999699834092,0.01320400425703399,0
55,7.4564543068480065,1556.680678416623,5.275087093674693,1178.9284297332924,11.251882654364826,4.776949365944388e-07,0.004412052294998837,0.02249308075629661,0.013220481361233993,0
56,7.4564543068480065,1511.2734273874787,4.125568186699528,2438.8286068897874,11.248022151274883,3.1484914263487285e-07,0.004456745672419403,0.022720295627085694,0.013257892292118576,0
57,7.4564543068480065,1504.1678689152218,5.739656120973301,2186.5608404780087,11.237237045311742,3.442037512622649e-07,0.004498590859572653,0.02293326617691913,0.01328674076508403,0
58,7.642865664519207,1530.7012737637428,9.558683875151296,1686.026508757186,11.240525615355244,4.085230989868861e-07,0.004546354058951078,0.023175753353084666,0.013333520426565727,0
59,7.829277022190407,1570.8737365953332,8.266308441382886,1853.500446995758,11.243801821687375,3.9459646709524573e-07,0.004595303958662822,0.023424455497599136,0.013386078626479139,0
60,9.134156525888807,1762.6693306805978,35.05566157940281,372.952080079546,11.329655685943,8.629708743368096e-07,0.004680658995139657,0.02385836174065167,0.013606067805486809,0
61,9.506979241231209,1912.010317079116,3.7564958554195234,2381.0138031967745,11.342076248896278,3.544532440473011e-07,0.00474338827953593,0.02417879589193315,0.013734519977426278,0
62,9.87980195657361,1975.389470944947,14.836005589683284,1150.2902690297726,11.365248076311328,5.965429781962067e-07,0.004812305971180966,0.024531961899431735,0.013883490700021891,0
63,10.06621331424481,2026.2320119392716,6.743012042121514,1999.4085195977564,11.35444858209937,4.404857245512615e-07,0.0048694284491932905,0.02482495016538667,0.013987493724781684,0
64,10.62544738725841,2114.6203245237216,18.362707101229407,630.1766511368885,11.39521698661855,7.486031261346254e-07,0.004950060021126578,0.025237963945100365,0.014192648580625227,0
65,11.060407221824544,2215.0961364171985,11.33179163304915,1441.722024136816,11.417156579643216,5.981669977228178e-07,0.005026745838253989,0.02562966206114618,0.014386251918955553,0
66,11.246818579495743,2266.9873400983706,7.876218593621987,1958.6066155120172,11.410433481919101,4.863366596386397e-07,0.005093363164053451,0.025969498499629432,0.014538791501434091,0
67,11.433229937166942,2301.6706020629754,9.32302048777233,1734.6308829891175,11.398164310584955,5.469791417111545e-07,0.005158606406361969,0.026302090468502324,0.014686492241439211,0
68,12.61383520241788,2481.055057440866,32.78845114304093,393.8561920231753,11.499819569183913,1.1940032446078093e-06,0.00527821520994489,0.026911192895270747,0.015108451680591179,0
69,14.415811659906145,2340.5212992825773,14.852698103564503,1027.4300676984524,11.597175905747484,7.334116238637407e-07,0.005407040540967473,0.027567753421196762,0.015589906501256101,0
70,16.46633659428935,2529.336310045557,57.373271668310736,298.92609433261595,11.768630480949504,1.7106847527305413e-06,0.005581617797165183,0.028457331522915373,0.0163262624786527,0
71,18.516861528672553,2870.711224919918,45.00333540238653,334.31249848943776,11.959614258871355,1.6669802527676806e-06,0.00578284179465527,0.02948158924563914,0.017217543913706796,0
72,20.256700866937084,2672.7086204094535,38.973634667186765,441.6773492835974,12.130702699275783,1.1706117263115949e-06,0.005991763945162976,0.030542632708479,0.018150978710365532,0
73,21.375169012964285,2899.9275085435816,31.222003256933437,380.1010757957849,12.13657769386432,1.4804066870372197e-06,0.006132030113032957,0.03125510698620863,0.018690409130648965,0
74,22.058677324425354,3030.0579654120584,22.74782678200733,502.41781683888416,12.184553568008274,1.1817805092571657e-06,0.006300042982532712,0.03210864139466104,0.019384629995210866,0
75,22.617911397438952,3107.815561074009,20.964327333768587,496.2097898274603,12.18515737659809,1.2458347574890478e-06,0.006448787863811865,0.032865451560124666,0.019967548149009775,0
76,23.239282589676286,3191.8404183747557,23.415736027803927,482.9715950274528,12.20245660780895,1.3369862760585116e-06,0.006610176498793757,0.033687035429440036,0.02062494094468508,0
77,23.922790901137354,3285.846242806577,24.472761560483335,474.9206419981369,12.22724682217019,1.4189432100211904e-06,0.006780305582967426,0.03455383656638274,0.021334324518889097,0
78,24.41988785492722,3365.7316797787225,19.338092521998092,574.0890681424557,12.236417619989808,1.2927887461024984e-06,0.006946425470384865,0.035401306783262,0.022021553906925555,0
79,24.544162093374688,3396.1866228648346,10.74797555532144,1660.8719329453531,12.168509149890047,8.177203415149495e-07,0.007071029660275986,0.03603771164221613,0.022494576218176167,0
80,24.233476497256024,3367.8637098270397,1.237842739240143,2833.2064334281317,11.99675580569229,2.894267910645704e-07,0.007132733577480905,0.036353262551099684,0.02264643178152346,0
81,23.922790901137354,3320.474057025146,3.516760847245214,2426.165398524484,11.814292282186802,4.6585572344854144e-07,0.0071813517708850545,0.03660198859986192,0.022731024142578545,0
82,23.177145470452555,3226.998419130997,0.07607405349174855,2899.9854555962565,11.62523983703295,2.597375966113307e-07,0.0072182089781566774,0.03679074536003762,0.022755705918009943,0
83,22.99073411278135,3183.5436789887262,6.667456653351089,1961.2593924037355,11.481345165796151,6.422033484531438e-07,0.0072750321112938715,0.037081051536625116,0.022880553083374014,0
84,22.804322755110153,3162.262316532319,5.238207673444542,2288.71353792471,11.365644452421748,5.061735977270344e-07,0.007345131340199484,0.03743886083261038,0.023071878522075394,0
85,22.307225801320286,3103.03188608419,0.16047427411948578,2899.9319007296417,11.211077065469269,2.5975818817764603e-07,0.007385225353578358,0.03764402355195186,0.02311245749603686,0
86,21.934403085977888,3046.767980810132,1.626367095454677,2670.5847256087904,11.062709782817572,3.469049853799462e-07,0.007422844277883508,0.03783655585322559,0.023140368734228565,0
87,21.49944325141175,2989.8920252761136,0.0877072768497941,2899.92000993828,10.920085955250478,2.597610457447349e-07,0.00745840841936488,0.03801864634712205,0.023158026087014914,0
88,21.25089477451682,2946.1950411261314,4.836267114288541,2245.0335682827126,10.805754580196425,4.96056026902973e-07,0.007507840046879734,0.03827102629069898,0.02324366623737726,0
89,19.82174103237095,2771.640610157467,0.08456559339355117,2899.9881414678753,10.682344231113538,2.5973544415916264e-07,0.007544311057854384,0.038457690277446076,0.023265592389107453,0
90,16.963433548079216,2398.1192051804423,0.0005699829923207653,2899.999999908064,10.572458980521713,2.597315436482995e-07,0.00757631108963093,0.03862169043690893,0.023265592530571373,0
91,13.670166229221344,1950.5079970183087,3.838569028233622e-06,2899.999999999962,10.489611796726924,2.5973154362416836e-07,0.00760831108728043,0.03878569042470435,0.02326559251646804,0
92,10.563310268034677,1743.5761196235555,2.585395439454348e-08,2899.9999999999623,10.434308459417508,2.59731543624167e-07,0.007640311087280415,0.03894969042470411,0.02326559251646804,0
93,8.82347092977014,1450.3494864630522,1.7441325905071317e-10,2899.9999999999623,10.39981581227358,2.5973154362416534e-07,0.007672311087280391,0.039113690424703626,0.02326559251646804,0
94,7.4564543068480065,1585.988508391355,2.026730665142831,2894.412791818804,10.39840625223092,2.6046484140530773e-07,0.00771841210136924,0.039349270981913535,0.023318595955794042,0
95,5.654477849359738,1204.4740156196212,0.013870569565797713,2899.9999575061443,10.388594965087023,2.59731547294583e-07,0.00775041957840928,0.039513308355955915,0.023318619077856095,0
96,3.6039529149765364,1101.5972543764867,9.341484425667405e-05,2899.9999999998668,10.393826685474023,2.597315436241711e-07,0.0077824195784461205,0.039677308356143574,0.023318619077917588,0
97,2.236936292054402,1096.1041094136242,6.29104663537534e-07,2900.0,10.4128463459732,2.597315436241611e-07,0.007814419578446096,0.03984130835614309,0.023318619077917588,0
98,1.3670166229221348,1090.6372747297444,4.23672147958715e-09,2900.0,10.440897246729703,2.597315436241611e-07,0.00784641957844607,0.04000530835614262,0.023318619077917588,0
99,0.0,1085.1976986779018,2.8533026893038348e-11,2900.0,10.477359892220031,2.597315436241611e-07,0.007878419578446037,0.04016930835614219,0.023318619077917588,0
100,0.0,1079.7852525754859,1.9215710416077488e-13,2900.0,10.519322864001238,2.597315436241611e-07,0.007910419578446012,0.040333308356141725,0.023318619077917588,0
101,0.0,1074.3998011602903,1.2940869426642058e-15,2900.0,10.561491236861594,2.597315436241611e-07,0.007942419578445986,0.040497308356141244,0.023318619077917588,0
102,0.0,1069.0412097960852,8.715061680846458e-18,2900.0,10.60383089376121,2.597315436241611e-07,0.007974419578445961,0.04066130835614076,0.023318619077917588,0
103,0.0,1063.70934451781,5.869180624339762e-20,2900.0,10.646345619145118,2.597315436241611e-07,0.008006419578445938,0.04082530835614028,0.023318619077917588,0
104,0.0,1058.404072028554,3.9526147332762804e-22,2900.0,10.688888684910198,2.597315436241611e-07,0.008038419578445912,0.0409893083561398,0.023318619077917588,0
105,0.0,1053.125259696229,2.6618985220735432e-24,2900.0,10.73132589363685,2.597315436241611e-07,0.008070419578445887,0.04115330835613932,0.023318619077917588,0
106,0.0,1047.8727755502532,1.7926623817302997e-26,2900.0,10.773715175217053,2.597315436241611e-07,0.008102419578445864,0.04131730835613884,0.023318619077917588,0
107,0.0,1042.6464882782466,1.2072730752965055e-28,2900.0,10.816076045685788,2.597315436241611e-07,0.008134419578445838,0.041481308356138356,0.023318619077917588,0
108,0.0,1037.4462672227585,8.13041146615168e-31,2900.0,10.85841864189416,2.597315436241611e-07,0.008166419578445813,0.041645308356137875,0.023318619077917588,0
109,0.0,1032.271982377989,5.47544643888424e-33,2900.0,10.900748936284048,2.597315436241611e-07,0.00819841957844579,0.041809308356137394,0.023318619077917588,0
110,0.0,1027.1235043865474,3.687453437000603e-35,2900.0,10.943070536369284,2.597315436241611e-07,0.008230419578445764,0.04197330835613691,0.023318619077917588,0
111,0.0,1022.0007045362177,2.4833249675287377e-37,2900.0,10.985385612866882,2.597315436241611e-07,0.00826241957844574,0.04213730835613644,0.023318619077917588,0
112,0.0,1016.9034547567367,1.672401563765318e-39,2900.0,11.027695580860023,2.597315436241611e-07,0.008294419578445716,0.04230130835613596,0.023318619077917588,0
113,0.0,1011.8316276165931,1.1262831192278562e-41,2900.0,11.070001351223642,2.597315436241611e-07,0.00832641957844569,0.042465308356135475,0.023318619077917588,0
